FID,Id,ORIG_FID,k26_70_1,k26_70_2,k26_70_3,k26_70_4,k26_70_5,k26_70_6,k26_70_7,k26_70_8,k26_70_9,k26_70_10,k26_70_11,k26_70_12
0,54006,13721,7.242569923,25.76429939,63.80820084,104.4169998,118.8069992,108.5810013,88.1785965,68.37989807,51.53960037,28.33679962,10.04749966,3.820640087
1,54007,13722,7.370090008,26.44070053,65.18309784,106.0049973,119.4889984,108.6460037,87.79920197,67.87090302,51.24900055,28.10860062,10.01019955,3.818710089
2,54012,13723,8.209609985,29.07080078,70.25029755,109.8840027,128.2640076,120.0719986,95.94280243,70.35769653,51.46340179,28.20149994,10.2173996,3.96216011
3,54013,13724,8.413029671,29.40920067,70.4937973,108.8379974,129.5659943,122.802002,97.92350006,71.44280243,51.07249832,28.50320053,10.34529972,4.070449829
4,54014,13725,8.619159698,29.79529953,70.3993988,107.6419983,130.2599945,125.1800003,99.86599731,72.5,50.59080124,28.89019966,10.55920029,4.201859951
5,54015,13726,8.836580276,30.38330078,71.040802,107.6839981,130.6999969,126.1470032,101.8499985,73.55529785,50.19380188,29.07010078,10.78730011,4.310500145
6,54016,13727,8.912229538,30.47509956,71.50659943,108.2529984,131.0160065,126.3209991,103.7480011,74.28820038,49.6955986,28.86050034,10.86289978,4.372389793
7,54017,13728,9.056099892,30.69190025,72.43070221,109.1269989,130.4539948,124.3820038,103.7809982,74.09909821,49.01919937,28.55209923,10.87170029,4.441219807
8,54018,13729,9.455180168,31.25939941,73.48500061,108.4660034,126.9869995,120.3499985,101.0849991,72.1969986,47.60990143,28.15460014,11.18770027,4.692299843
9,54019,13730,9.742970467,31.55010033,74.13110352,107.3830032,123.9589996,116.4769974,98.68710327,70.62000275,46.49100113,27.77879906,11.33670044,4.873620033
10,54020,13731,9.816340446,31.38940048,73.88809967,107.0370026,121.1169968,113.5270004,97.77909851,69.30989838,45.03549957,26.92420006,11.2883997,4.926189899
11,54021,13732,9.766659737,31.16559982,73.55259705,107.6060028,119.9779968,113.2170029,98.47029877,69.58750153,44.93759918,26.44149971,11.22130013,4.917280197
12,54022,13733,9.782500267,31.28809929,73.90879822,107.9339981,119.1299973,113.4680023,99.20680237,70.62059784,45.39870071,26.55190086,11.30220032,4.927820206
13,54023,13734,9.804149628,31.42379951,74.19650269,108.0770035,118.3779984,113.5130005,99.61229706,71.35620117,45.72499847,26.80450058,11.39890003,4.940040112
14,54024,13735,9.830619812,31.58340073,74.46880341,108.4520035,118.1780014,113.6139984,99.90640259,71.90730286,45.88589859,27.13260078,11.48139954,4.943940163
15,54025,13736,9.714349747,31.36170006,74.33180237,109.2979965,120.2870026,115.4530029,102.2860031,73.56980133,46.37540054,27.46929932,11.39519978,4.850399971
16,54026,13737,9.354129791,30.5970993,73.08580017,109.8389969,124.1299973,119.9970016,106.4919968,76.17060089,47.39179993,27.71839905,11.29419994,4.710480213
17,54027,13738,8.73993969,29.04899979,69.94069672,107.9929962,124.8929977,123.7699966,110.8949966,79.50669861,48.51060104,27.72789955,11.02340031,4.480090141
18,54028,13739,8.224129677,27.79150009,67.40679932,106.5510025,126.8280029,128.8040009,115.8720016,83.37259674,49.75009918,27.69079971,10.71140003,4.253809929
19,54029,13740,8.114170074,27.16769981,66.23739624,106.348999,128.8139954,132.6900024,119.6200027,86.67030334,51.23759842,28.26950073,10.82989979,4.248960018
20,54030,13741,8.142279625,26.9375,66.22170258,107.9209976,131.9069977,135.7359924,122.1949997,88.98179626,52.45610046,28.93790054,11.06050014,4.28237009
21,54031,13742,8.133000374,26.70019913,66.19940186,109.4160004,134.5050049,137.5110016,122.9830017,89.89150238,52.64440155,28.9423008,11.19369984,4.282259941
22,54032,13743,7.947169781,26.00620079,65.08209991,109.2220001,136.7700043,140.3899994,124.7419968,90.77600098,52.65200043,28.5182991,11.05379963,4.208119869
23,54033,13744,7.829770088,25.61199951,64.47049713,109.0680008,139.4850006,143.5529938,126.6610031,91.67579651,52.88970184,28.35740089,10.99820042,4.200190067
24,54034,13745,7.832409859,25.67079926,64.83309937,109.9189987,142.8600006,146.1799927,127.9690018,92.46199799,53.02030182,28.39220047,11.04539967,4.265550137
25,54035,13746,8.019109726,26.41309929,66.64170074,112.7570038,146.2059937,146.5370026,127.387001,92.31520081,52.65129852,28.44560051,11.28899956,4.399499893
26,54036,13747,8.223750114,27.18630028,68.56610107,115.4209976,149.0359955,147.2879944,126.9140015,91.95770264,51.98609924,28.34760094,11.40989971,4.502610207
27,54037,13748,8.401120186,27.85479927,69.98149872,117.7360001,152.9810028,151.5740051,129.2389984,92.82039642,52.60010147,28.76250076,11.53320026,4.574520111
28,54038,13749,8.601539612,28.47789955,71.51380157,120.8280029,158.2870026,159.4640045,134.8500061,95.36399841,54.66759872,29.43670082,11.60990047,4.626589775
29,54039,13750,8.804499626,29.06900024,73.07710266,123.8740005,164.2100067,171.0019989,145.0630035,101.2350006,58.01689911,30.74180031,11.77709961,4.679769993
30,54040,13751,9.175390244,30.14319992,75.30809784,126.2900009,166.4400024,172.3099976,147.0050049,101.6200027,56.88359833,30.32699966,11.90789986,4.814809799
31,54041,13752,9.763219833,31.88400078,78.69029999,129.6390076,168.3000031,169.2129974,144.3639984,98.91960144,54.09270096,29.55109978,12.20409966,5.055369854
32,54042,13753,10.39490032,33.69020081,82.32409668,133.6450043,169.8399963,168.1560059,144.5500031,99.25830078,53.40240097,29.17210007,12.59360027,5.318339825
33,54043,13754,10.68459988,34.47589874,83.7303009,135.8919983,168.1730042,165.4889984,143.746994,98.93470001,52.02220154,27.98570061,12.55370045,5.427259922
34,54044,13755,10.78180027,34.81349945,84.13770294,137.3990021,165.9810028,162.0740051,141.7740021,97.49269867,50.38909912,26.79560089,12.38479996,5.433050156
35,54045,13756,10.86139965,35.21360016,84.65080261,139.6369934,165.3009949,160.3959961,140.0140076,96.60700226,49.68809891,26.23530006,12.25469971,5.40929985
36,54046,13757,10.90649986,35.32189941,84.14820099,138.3000031,163.654007,158.6399994,137.9049988,95.58660126,49.62680054,26.31290054,12.22410011,5.415100098
37,54047,13758,10.77910042,34.84600067,82.49269867,135.5160065,160.947998,157.3099976,136.0650024,94.35199738,49.53129959,26.29430008,12.08850002,5.343999863
38,54048,13759,10.81280041,34.84700012,82.16369629,134.9550018,160.2050018,156.6959991,135.3329926,93.72270203,49.98839951,26.66150093,12.1807003,5.3895998
39,54049,13760,10.99240017,35.24739838,83.26270294,136.9470062,161.5099945,157.7980042,136.3670044,94.39379883,51.8207016,27.46190071,12.51949978,5.534830093
40,54050,13761,11.09700012,35.43080139,83.36959839,135.8379974,160.0500031,158.8170013,137.7579956,95.50109863,54.10739899,28.21940041,12.84679985,5.682109833
41,54051,13762,11.19460011,35.56689835,83.26260376,134.0339966,157.7129974,159.9360046,140.3639984,97.62149811,56.77009964,29.12260056,13.12989998,5.83480978
42,54052,13763,11.31429958,35.80110168,83.38819885,132.6380005,156.1869965,162.6239929,145.1040039,101.5960007,59.9701004,30.25219917,13.34379959,5.97551012
43,54053,13764,11.36100006,35.83769989,83.30729675,131.2109985,155.9409943,165.5119934,150.1100006,105.939003,63.43849945,31.59449959,13.53569984,6.045330048
44,54054,13765,11.42800045,35.83440018,83.14559937,129.6840057,157.048996,169.802002,156.5090027,111.4319992,67.74310303,33.29130173,13.83150005,6.132929802
45,54055,13766,11.45709991,35.77780151,82.83280182,128.3179932,158.2859955,173.8170013,162.4790039,116.4240036,71.20500183,34.75770187,14.05090046,6.170340061
46,54056,13767,11.51060009,35.71620178,82.66410065,127.2129974,160.1490021,178.9810028,168.9369965,121.7289963,74.79669952,36.10720062,14.29510021,6.210030079
47,54057,13768,11.65400028,36.11370087,83.71279907,129.3999939,163.8829956,184.7920074,174.6629944,126.6969986,77.94129944,37.30179977,14.48019981,6.287439823
48,54058,13769,11.77799988,36.60110092,85.12180328,132.7089996,168.4309998,190.5299988,179.7290039,130.6549988,80.18370056,38.21569824,14.5333004,6.34209013
49,54059,13770,11.84700012,36.93830109,86.25920105,135.9400024,173.0800018,195.8670044,183.9089966,133.2570038,81.66369629,38.82279968,14.49730015,6.377049923
50,54060,13771,11.90569973,37.2057991,87.30059814,138.2330017,176.7100067,199.0509949,185.4490051,134.1829987,82.24040222,39.01950073,14.46080017,6.417840004
51,54061,13772,11.96580029,37.51530075,88.37419891,140.5390015,179.779007,201.7380066,186.8609924,135.8939972,82.70839691,39.03950119,14.3835001,6.436870098
52,54062,13773,11.98359966,37.6590004,88.93039703,142.4369965,182.095993,204.173996,188.4369965,137.8209991,82.89209747,38.8268013,14.2244997,6.437670231
53,54063,13774,12.0298996,37.7867012,89.62809753,143.6499939,183.6410065,206.0399933,189.5090027,138.7899933,82.59770203,38.46720123,14.05879974,6.434760094
54,54064,13775,12.05189991,38.01300049,90.2437973,144.6670074,184.9440002,207.3370056,190.3390045,139.3329926,82.25119781,37.86520004,13.84039974,6.357880116
55,54065,13776,12.09589958,38.43149948,91.06939697,146.0709991,186.4810028,208.5460052,191.3439941,139.776001,82.13809967,37.47570038,13.73589993,6.318230152
56,54066,13777,12.09080029,38.64849854,91.09970093,146.6380005,187.1349945,209.0950012,191.5559998,139.6029968,81.7365036,37.125,13.68280029,6.302149773
57,54067,13778,12.22949982,39.22129822,91.77629852,147.4750061,187.5480042,209.0650024,191.3829956,139.5529938,81.5059967,36.98189926,13.76970005,6.383299828
58,54068,13779,12.41460037,39.78699875,92.72699738,148.0690002,187.6130066,208.8029938,191.151001,139.6869965,81.20349884,36.73279953,13.86260033,6.488850117
59,54069,13780,12.58860016,40.28680038,93.80740356,148.4660034,187.2590027,208.4839935,191.0650024,139.8339996,80.7233963,36.25740051,13.8980999,6.57144022
60,54070,13781,12.68589973,40.81240082,94.72789764,149.552002,187.0299988,208.5630035,191.3059998,139.022995,79.95749664,35.29579926,13.63850021,6.466189861
61,54071,13782,12.7578001,41.00299835,95.07039642,150.3379974,185.9900055,207.7709961,190.7259979,137.3919983,78.84999847,34.67699814,13.5447998,6.475659847
62,54072,13783,12.83940029,41.10839844,94.89600372,150.5050049,184.0079956,206.1959991,189.470993,135.1029968,77.49289703,34.34019852,13.57680035,6.53910017
63,54073,13784,12.94929981,41.18119812,94.94110107,150.8950043,182.4689941,205.0870056,188.7120056,134.0160065,76.70729828,34.23509979,13.77740002,6.658440113
64,54074,13785,13.09840012,41.44609833,95.30940247,151.423996,181.3569946,203.5509949,187.3910065,132.8339996,75.95300293,34.14759827,13.98390007,6.746689796
65,54075,13786,13.24699974,41.78369904,95.99510193,152.4490051,181.4060059,202.5390015,186.3659973,132.128006,75.34410095,34.12279892,14.19649982,6.820230007
66,54076,13787,13.40429974,42.33470154,97.19280243,154.1049957,182.397995,201.378006,185.2940063,131.7810059,74.69490051,34.30279922,14.44849968,6.899859905
67,54077,13788,13.44390011,42.56669998,97.77629852,155.4019928,182.8650055,199.4579926,184.4210052,131.1089935,73.86309814,34.10179901,14.53040028,6.912930012
68,54078,13789,13.51640034,42.83209991,98.32250214,156.3090057,182.9539948,197.2649994,183.6380005,130.3939972,73.26540375,33.9612999,14.63669968,6.948699951
69,54079,13790,13.60229969,43.19449997,98.85340118,156.8919983,182.845993,195.3500061,182.6450043,129.5749969,72.77380371,33.89599991,14.78030014,7.003419876
70,54080,13791,13.70680046,43.68470001,99.39489746,157.3589935,183.0549927,194.5659943,181.4759979,128.8099976,72.52539825,33.8146019,14.93710041,7.083869934
71,54081,13792,13.88220024,44.23450089,100.185997,158.1690063,183.5370026,193.7640076,180.3480072,128.1779938,72.41049957,33.78329849,15.09189987,7.194779873
72,54082,13793,14.01539993,44.56169891,100.8720016,159.4689941,184.177002,193.3619995,179.6640015,127.8730011,72.5983963,33.77259827,15.19139957,7.274950027
73,54083,13794,14.1260004,44.98509979,101.7099991,160.8800049,185.1909943,193.1920013,179.5639954,127.75,73.03330231,33.70940018,15.16549969,7.327990055
74,54084,13795,14.13300037,45.16989899,102.3310013,161.8110046,186.0910034,194.1920013,180.076004,127.3379974,73.26999664,33.42070007,14.88560009,7.287449837
75,54085,13796,14.0138998,45.78450012,104.9449997,167.9049988,193.7359924,198.3029938,182.8190002,127.9810028,73.32959747,32.47999954,13.53149986,6.728710175
76,54101,13797,11.1892004,44.15240097,107.5439987,174.2689972,199.9349976,190.2510071,162.8070068,117.7070007,64.73899841,27.83930016,10.48849964,4.588290215
77,54102,13798,11.91650009,44.40819931,106.5019989,172.2599945,195.3249969,187.3739929,159.0919952,115.3909988,63.64960098,28.25119972,11.40919971,5.160329819
78,54103,13799,12.8039999,44.73860168,105.3690033,170.6900024,191.1959991,182.5410004,153.0249939,111.5709991,62.44509888,28.87470055,12.62100029,5.945980072
79,54104,13800,13.32470036,45.24349976,105.310997,171.2680054,192.9160004,179.4519958,148.1900024,108.5360031,61.6711998,29.43079948,13.38430023,6.408500195
80,54105,13801,13.38510036,45.15309906,104.913002,171.0789948,193.9869995,176.7440033,143.8240051,105.012001,60.25920105,29.34480095,13.46780014,6.49530983
81,54106,13802,13.4406004,45.09109879,104.8239975,171.0549927,194.3619995,173.5350037,139.7290039,101.9169998,59.09059906,29.16959953,13.45049953,6.518710136
82,54107,13803,13.40390015,44.86989975,104.3509979,170.1190033,192.6239929,169.5449982,136.6679993,99.57810211,58.52529907,28.89909935,13.26980019,6.490320206
83,54108,13804,13.33969975,44.65069962,103.7870026,168.5579987,191.6000061,166.102005,134.9109955,98.00289917,58.65100098,28.71089935,13.07569981,6.435229778
84,54109,13805,13.22389984,44.40169907,103.3909988,167.2850037,189.2769928,162.8110046,135.0370026,97.81410217,59.0379982,28.58250046,12.69009972,6.322869778
85,54110,13806,12.91059971,44.17979813,103.6930008,167.7330017,187.9620056,161.7389984,137.7929993,99.77539825,60.44300079,28.57570076,11.84990025,5.95980978
86,54114,13807,11.04150009,40.68360138,99.18099976,158.2910004,175.8789978,161.2769928,143.6600037,103.75,62.24290085,27.75419998,9.768549919,4.693270206
87,54115,13808,10.91720009,39.84030151,97.00900269,155.3130035,173.6519928,160.6000061,140.8090057,102.0410004,61.33580017,27.96279907,10.05130005,4.761469841
88,54177,13809,6.922959805,21.49810028,56.94269943,106.3470001,148.2819977,153.4080048,134.5630035,97.74729919,65.68769836,30.5114994,10.22830009,3.89583993
89,54178,13810,7.115499973,22.16559982,59.46179962,112.9710007,159.1690063,171.3999939,150.4649963,112.2289963,72.20559692,32.33050156,10.57680035,3.92031002
90,54179,13811,0,0,0,0,0,0,0,0,0,0,0,0
91,54184,13812,6.730279922,21.28249931,56.49399948,108.4079971,163.0890045,176.3890076,158.0939941,106.0979996,65.37270355,28.70439911,9.495409966,3.6884799
92,54185,13813,6.74503994,21.35330009,56.04050064,105.2399979,159.0789948,174.1860046,156.3829956,102.8280029,62.72249985,27.41900063,9.263259888,3.682899952
93,54186,13814,6.819489956,21.6602993,56.42950058,103.5250015,155.2420044,171.4810028,153.779007,99.0243988,59.76259995,26.05730057,8.977510452,3.686419964
94,54187,13815,6.968349934,22.35630035,58.08950043,104.2450027,153.7510071,169.8950043,150.8569946,95.91429901,57.26390076,24.85499954,8.689729691,3.681060076
95,54188,13816,7.000470161,22.91320038,59.17279816,104.7839966,153.0410004,169.6549988,150.6990051,96.37960052,56.81259918,24.28129959,8.449850082,3.66031003
96,54189,13817,6.988299847,23.33620071,60.01860046,105.4919968,153.0160065,171.6130066,154.477005,100.2050018,58.07429886,24.1303997,8.30161953,3.641000032
97,54190,13818,7.067840099,23.73040009,60.42179871,105.2409973,152.2899933,172.1329956,157.2149963,103.2220001,59.56579971,24.3810997,8.275460243,3.688110113
98,54191,13819,7.202720165,24.12999916,60.87889862,105.4250031,152.9160004,173.5240021,160.5350037,106.7480011,61.4394989,24.92099953,8.29321003,3.769779921
99,54192,13820,7.369279861,24.6128006,61.76350021,106.8830032,155.4499969,177.1820068,165.0019989,111.677002,63.98379898,25.76280022,8.381250381,3.845410109
100,54193,13821,7.538249969,25.0984993,62.9048996,108.8939972,159.0559998,181.9100037,170.1439972,117.0070038,66.86660004,26.8178997,8.533189774,3.904150009
101,54194,13822,7.586100101,25.26449966,63.52059937,110.7799988,162.451004,186.2870026,175.1909943,121.7839966,69.6371994,27.84259987,8.69890976,3.910170078
102,54195,13823,7.620969772,25.28370094,63.48329926,111.6740036,165.9589996,190.753006,180.072998,126.6210022,72.65979767,29.11639977,8.971730232,3.934210062
103,54196,13824,7.621140003,25.2866993,63.54919815,113.4499969,170.5119934,196.2409973,185.8130035,131.7220001,75.0632019,30.19379997,9.2667799,3.950779915
104,54197,13825,7.551529884,25.32649994,64.18830109,116.7480011,176.5209961,203.2259979,192.2769928,137.4109955,77.45240021,31.1487999,9.575180054,3.950079918
105,54198,13826,7.211550236,24.90870094,65.37200165,121.9380035,183.3410034,211.3690033,199.4459991,142.776001,79.126297,31.56329918,9.594309807,3.801800013
106,54199,13827,6.840720177,24.33289909,66.02469635,126.4110031,188.923996,218.5500031,205.2409973,146.8150024,80.13659668,31.40320015,9.473750114,3.644129992
107,54200,13828,6.614190102,23.88369942,65.70349884,127.939003,191.2129974,223.2510071,209.3919983,149.4389954,80.74849701,31.23990059,9.41106987,3.551440001
108,54201,13829,6.607190132,23.96990013,65.33499908,127.7259979,191.0149994,223.9589996,209.4259949,149.298996,80.32009888,31.0454998,9.382710457,3.531790018
109,54202,13830,6.689770222,24.00160027,64.46559906,126.1699982,189.2559967,222.4299927,207.9949951,148.076004,79.1588974,30.56870079,9.221590042,3.537070036
110,54203,13831,6.82062006,24.1651001,64.04579926,124.3379974,186.8059998,219.6959991,205.7899933,146.2429962,77.44029999,29.81399918,9.001660347,3.571249962
111,54204,13832,7.006040096,24.56520081,64.28730011,122.6399994,183.826004,216.0939941,202.7779999,143.9380035,75.28690338,28.86050034,8.767530441,3.629940033
112,54205,13833,7.026659966,24.54439926,64.3085022,121.2040024,181.1170044,212.947998,199.447998,141.6909943,73.14990234,27.55900002,8.437800407,3.570719957
113,54206,13834,7.18295002,24.79220009,64.71260071,120.3970032,179.1490021,210.7299957,198.0220032,140.7819977,72.36270142,27.19799995,8.473660469,3.599050045
114,54207,13835,7.432459831,25.44949913,65.5565033,120.2979965,177.4759979,209.197998,197.2890015,140.0010071,71.82299805,27.14699936,8.585889816,3.657289982
115,54208,13836,7.634789944,26.07979965,66.42500305,120.5350037,176.253006,208.6340027,197.647995,140.2129974,71.59149933,27.20630074,8.723959923,3.729279995
116,54209,13837,7.758200169,26.46660042,66.76229858,120.4950027,175.8860016,208.4060059,198.3410034,140.0119934,71.08429718,27.11170006,8.814299583,3.825160027
117,54210,13838,7.805840015,26.83300018,67.3572998,120.4169998,175.3090057,207.4219971,199.0670013,139.6009979,70.65039825,26.97999954,8.797450066,3.857739925
118,54211,13839,8.045339584,28.20739937,70.09410095,122.625,177.0039978,208.1829987,200.7420044,140.0570068,70.10700226,26.53440094,8.67745018,3.880069971
119,54212,13840,8.422829628,29.25349998,71.74859619,123.9240036,178.6130066,208.6629944,200.9680023,140.8090057,69.73860168,26.21419907,8.700260162,3.966710091
120,54213,13841,8.278269768,28.20499992,69.27929688,121.2919998,176.401001,205.2380066,198.3090057,139.8110046,68.81909943,25.89970016,8.774100304,3.983319998
121,54214,13842,8.191849709,27.54369926,67.52010345,119.151001,173.9790039,201.5500031,195.5939941,138.397995,67.74210358,25.56089973,8.824170113,4.005959988
122,54215,13843,8.380660057,28.16880035,68.38279724,119.6060028,173.3860016,199.701004,194.8320007,138.0549927,67.19259644,25.32369995,8.966400146,4.077559948
123,54216,13844,8.553509712,28.69820023,69.0306015,120.4400024,172.7339935,198.0350037,194.1889954,137.4629974,66.6072998,25.14360046,9.118049622,4.164330006
124,54217,13845,8.705550194,29.13220024,69.47910309,121.1460037,172.3560028,197.4570007,193.6190033,137.7640076,66.55190277,25.06110001,9.195529938,4.225530148
