FID,Id,ORIG_FID,k26_100_1,k26_100_2,k26_100_3,k26_100_4,k26_100_5,k26_100_6,k26_100_7,k26_100_8,k26_100_9,k26_100_10,k26_100_11,k26_100_12
0,54006,13721,7.449339867,24.56879997,62.30149841,100.4319992,115.362999,104.6460037,90.74890137,67.542099,50.770401,28.97229958,9.948579788,3.816760063
1,54007,13722,7.598090172,25.19919968,63.27000046,100.5479965,115.137001,104.9560013,90.40619659,66.7661972,50.50880051,28.9083004,9.890029907,3.822809935
2,54012,13723,8.332920074,27.79809952,68.54730225,104.3799973,123.2310028,119.8079987,99.45149994,72.38500214,50.90380096,29.61689949,10.23690033,3.984889984
3,54013,13724,8.549900055,28.22170067,69.22540283,104.637001,124.0220032,122.125,100.5149994,73.77189636,50.75849915,29.94219971,10.43010044,4.120560169
4,54014,13725,8.798760414,28.56419945,69.41970062,103.8330002,124.2679977,123.802002,100.6679993,74.32779694,50.78079987,30.42930031,10.64299965,4.27049017
5,54015,13726,9.027119637,29.05750084,70.09149933,103.4789963,124.3880005,125.2080002,101.1029968,74.47740173,50.45529938,30.6928997,10.82320023,4.392660141
6,54016,13727,9.115449905,29.33399963,70.16100311,103.8880005,124.2409973,126.4039993,101.177002,74.40619659,49.7405014,30.70159912,10.90400028,4.499010086
7,54017,13728,9.269200325,29.62140083,70.2589035,104.7149963,122.9789963,125.5279999,99.43489838,73.66929626,48.93740082,30.65679932,10.95600033,4.584529877
8,54018,13729,9.686619759,30.24510002,70.90200043,104.1579971,119.7259979,121.4820023,95.75469971,71.80570221,47.27410126,30.80660057,11.18809986,4.817940235
9,54019,13730,9.972060204,30.70549965,71.09899902,103.7860031,116.1989975,117.4140015,92.07260132,70.92919922,46.06790161,30.70199966,11.38119984,4.956580162
10,54020,13731,10.01280022,30.76980019,71.28549957,104.5970001,113.4609985,114.2180023,90.36869812,70.25659943,44.25719833,30.32430077,11.43470001,4.990749836
11,54021,13732,9.977519989,30.83860016,71.61979675,105.5319977,111.8550034,114.0370026,90.50849915,70.74320221,43.60800171,30.1298008,11.43400002,4.972509861
12,54022,13733,9.973670006,30.99279976,71.71510315,105.3919983,109.4759979,115.4459991,91.21279907,72.09960175,43.94400024,30.17379951,11.44349957,4.986499786
13,54023,13734,9.962880135,31.12080002,71.69239807,105.1940002,107.3399963,116.4459991,91.87750244,73.03649902,44.43090057,30.22839928,11.46619987,5.012519836
14,54024,13735,9.99462986,31.33799934,72.03929901,106.038002,106.362999,116.8499985,92.83830261,73.45110321,44.90039825,30.29000092,11.52060032,5.053659916
15,54025,13736,9.969449997,31.30920029,72.18090057,107.7030029,107.9280014,118.5650024,95.04450226,74.86470032,45.5387001,30.32970047,11.51200008,4.973859787
16,54026,13737,9.665450096,30.56019974,71.22579956,109.0599976,111.1790009,121.7799988,98.15830231,77.28250122,46.62659836,30.40519905,11.34930038,4.88049984
17,54027,13738,9.017499924,28.88010025,68.82740021,108.2480011,111.564003,124.3519974,102.2789993,80.18920135,47.83050156,30.26339912,10.98869991,4.686800003
18,54028,13739,8.480070114,27.69149971,67.38880157,108.0920029,113.2839966,128.904007,107.4069977,83.2009964,49.14229965,30.13409996,10.62940025,4.459449768
19,54029,13740,8.321370125,27.0102005,66.69879913,108.5360031,115.375,132.3820038,111.5210037,86.16519928,51.0318985,30.52370071,10.68640041,4.486700058
20,54030,13741,8.278530121,26.70120049,66.7743988,110.0859985,118.6259995,134.3049927,113.9759979,88.08409882,52.75469971,30.94210052,10.85589981,4.51086998
21,54031,13742,8.204580307,26.34280014,66.59559631,111.2229996,121.1719971,134.9530029,114.651001,88.3234024,52.93989944,30.91970062,11.0010004,4.48363018
22,54032,13743,8.063659668,25.74370003,65.54740143,110.9260025,123.3779984,137.0599976,116.8949966,88.37940216,52.56959915,30.54310036,10.8501997,4.396979809
23,54033,13744,7.957280159,25.43199921,64.82920074,110.5240021,126.1660004,140.1889954,119.3040009,88.53309631,52.84500122,30.22719955,10.76780033,4.357349873
24,54034,13745,7.948339939,25.60479927,65.00810242,111.0830002,129.6430054,143.4669952,121.4729996,88.7039032,53.32820129,30.06389999,10.77540016,4.385620117
25,54035,13746,8.111920357,26.43490028,66.79550171,113.6900024,133.1080017,145.4790039,121.7580032,88.29000092,53.02149963,30.10890007,10.86359978,4.540150166
26,54036,13747,8.277979851,27.06620026,68.73290253,116.0049973,137.2810059,147.8600006,122.2610016,87.0644989,52.26860046,29.95680046,10.87950039,4.642570019
27,54037,13748,8.451049805,27.53759956,70.15720367,118.026001,142.7940063,152.6450043,125.1289978,87.68250275,52.80110168,30.25289917,10.97439957,4.723090172
28,54038,13749,8.604570389,28.17989922,71.71959686,120.4169998,150.7619934,161.6470032,131.5619965,90.29959869,55.13959885,30.7859993,11.06389999,4.769539833
29,54039,13750,8.784330368,28.88339996,73.70010376,123.3720016,159.4539948,174.4720001,142.1710052,96.59200287,59.12969971,31.78389931,11.31550026,4.850840092
30,54040,13751,9.141400337,29.94009972,75.6006012,125.6589966,163.0390015,176.3800049,144.1269989,96.84390259,58.16859818,31.21380043,11.54870033,4.981190205
31,54041,13752,9.675970078,31.55699921,78.25250244,128.7290039,164.3500061,173.1000061,141.4140015,93.56880188,55.45539856,30.38400078,11.92080021,5.199880123
32,54042,13753,10.21710014,33.26440048,81.55780029,131.9669952,165.2660065,172.6390076,141.3070068,92.86949921,55.13629913,30.04290009,12.42770004,5.431660175
33,54043,13754,10.4673996,34.10580063,83.53450012,133.1900024,163.8500061,170.1380005,140.3419952,91.65709686,53.99919891,28.7343998,12.46879959,5.508810043
34,54044,13755,10.53139973,34.45709991,84.44210052,133.9089966,161.8009949,166.1799927,138.3890076,89.93099976,52.46009827,27.46689987,12.31729984,5.495629787
35,54045,13756,10.57310009,34.71049881,85.22650146,135.3390045,161.6750031,162.8139954,136.7030029,89.08999634,51.87829971,26.83729935,12.19839954,5.465879917
36,54046,13757,10.58539963,34.82400131,84.623703,135.1060028,161.3899994,159.9559937,135.1060028,88.56109619,51.48540115,26.59140015,12.10929966,5.468259811
37,54047,13758,10.4623003,34.53710175,82.83110046,133.0410004,160.25,156.651001,132.8300018,88.09220123,50.95869827,26.23859978,11.94509983,5.405550003
38,54048,13759,10.53059959,34.75590134,82.30439758,132.8659973,160.9559937,154.75,131.4049988,88.52690125,51.15919876,26.3864994,11.97360039,5.454030037
39,54049,13760,10.71949959,35.31669998,82.94429779,135.2400055,163.4609985,155.3609924,132.3500061,90.50340271,52.60210037,27.16300011,12.24919987,5.582570076
40,54050,13761,10.81659985,35.50289917,82.75859833,134.7610016,162.8970032,157.1909943,134.3399963,92.76540375,54.19820023,28.02890015,12.52159977,5.706880093
41,54051,13762,10.87530041,35.65610123,82.4539032,133.6860046,160.951004,158.7380066,137.598999,96.05139923,56.41619873,29.07509995,12.77750015,5.830110073
42,54052,13763,10.93929958,35.95149994,82.36740112,132.7649994,159.1230011,161.4700012,143.2169952,100.4440002,59.53379822,30.46570015,13.00049973,5.954460144
43,54053,13764,10.93599987,35.92440033,82.03009796,131.2890015,158.7330017,165.7359924,148.5449982,104.7419968,63.21239853,31.92939949,13.20829964,6.011730194
44,54054,13765,10.95759964,35.89199829,81.5109024,129.5160065,159.9539948,171.3249969,155.3950043,110.1549988,67.21399689,33.66479874,13.48589993,6.062300205
45,54055,13766,10.94979954,35.86169815,81.28369904,128.4960022,160.9589996,176.8070068,161.9900055,116.0459976,70.83580017,35.15710068,13.625,6.059309959
46,54056,13767,10.98320007,35.93799973,81.01170349,128.3930054,163.2799988,183.5789948,169.1670074,122.4219971,74.23290253,36.6595993,13.82579994,6.07461977
47,54057,13768,11.14929962,36.30390167,82.32389832,130.7489929,167.5599976,189.8910065,175.4389954,128.1060028,77.5326004,37.70759964,14.08679962,6.136469841
48,54058,13769,11.29129982,36.75090027,84.20770264,133.9190063,172.548996,195.7859955,180.7250061,132.7839966,80.15769958,38.1908989,14.26679993,6.178880215
49,54059,13770,11.37849998,37.35449982,85.93430328,137.0639954,177.5090027,200.4600067,184.3079987,136.2720032,81.98220062,38.43170166,14.36550045,6.20002985
50,54060,13771,11.51959991,37.88890076,87.15450287,139.7630005,181.1260071,203.2619934,185.5720062,136.723999,82.66500092,38.59840012,14.37930012,6.208429813
51,54061,13772,11.63560009,38.26330185,88.15450287,142.2579956,184.4199982,206.3760071,187.6069946,137.5540009,82.98600006,38.66870117,14.40089989,6.226170063
52,54062,13773,11.68529987,38.43909836,88.72859955,143.9120026,187.2339935,208.9450073,189.7429962,138.8560028,83.05400085,38.57260132,14.34720039,6.219500065
53,54063,13774,11.71879959,38.4817009,89.12229919,144.9589996,187.8059998,209.9700012,190.927002,139.5299988,82.63990021,38.36880112,14.21310043,6.245940208
54,54064,13775,11.76379967,38.60889816,89.63870239,146.2579956,188.6640015,210.6970062,191.9589996,139.9360046,82.23220062,38.10110092,13.97799969,6.245240211
55,54065,13776,11.82839966,38.95500183,90.78199768,147.7689972,190.5700073,211.0970001,193.5370026,140.5630035,81.88359833,37.9516983,13.77939987,6.263249874
56,54066,13777,11.88000011,39.13050079,91.21520233,148.0449982,191.6629944,210.7189941,194.121994,140.1730042,81.30509949,37.63840103,13.68280029,6.295090199
57,54067,13778,12.07289982,39.4756012,92.31680298,148.8500061,191.7160034,210.154007,194.0570068,139.5420074,80.96170044,37.45299911,13.68350029,6.353970051
58,54068,13779,12.30239964,39.89749908,93.44400024,149.8849945,191.3580017,209.2059937,193.5939941,139.2149963,80.46240234,37.09579849,13.70219994,6.419509888
59,54069,13780,12.53680038,40.36009979,94.45110321,151.0099945,190.8829956,208.1620026,193.0209961,139.3529968,79.79129791,36.50960159,13.69069958,6.473750114
60,54070,13781,12.69649982,40.80889893,95.3742981,152.5659943,191.0789948,207.6569977,193.2689972,139.5019989,78.78350067,35.67309952,13.45639992,6.38049984
61,54071,13782,12.77060032,40.86470032,95.42910004,153.1940002,190.5200043,206.9859924,192.220993,138.5570068,77.36720276,35.0060997,13.42160034,6.387849808
62,54072,13783,12.80379963,40.76079941,95.23829651,153.3609924,188.8540039,205.3320007,189.7630005,136.6790009,75.48149872,34.47330093,13.61240005,6.439439774
63,54073,13784,12.87010002,40.72710037,95.32420349,153.7039948,187.5359955,204.3220062,187.4609985,135.8939972,74.33679962,34.14820099,13.83440018,6.540840149
64,54074,13785,13.01019955,41.22819901,95.78089905,153.8119965,186.7100067,202.3009949,185.8249969,134.4779968,73.91349792,34.25839996,14.11159992,6.641290188
65,54075,13786,13.13739967,41.75780106,96.48190308,154.529007,186.8730011,201.0950012,184.7279968,133.0180054,73.84829712,34.50970078,14.41289997,6.736939907
66,54076,13787,13.32579994,42.38729858,97.54530334,156.0050049,187.7799988,200.1790009,183.1920013,131.6239929,74.02189636,34.81919861,14.78989983,6.840529919
67,54077,13788,13.44480038,42.79809952,98.35679626,157.5249939,189.1860046,199.0599976,181.0930023,130.173996,74.0338974,34.77610016,14.95800018,6.840579987
68,54078,13789,13.5401001,43.13380051,99.15910339,158.7200012,190.2189941,197.6929932,179.2749939,128.951004,74.01110077,34.74879837,15.09679985,6.859389782
69,54079,13790,13.62489986,43.46749878,99.75279999,159.3710022,190.7720032,196.375,177.5670013,127.8389969,73.97820282,34.79130173,15.21940041,6.906690121
70,54080,13791,13.72920036,43.78509903,100.1039963,159.2220001,190.2259979,195.746994,177.0039978,127.5240021,74.0223999,34.83409882,15.34469986,6.982940197
71,54081,13792,13.87510014,44.08010101,100.4909973,159.7669983,189.6649933,194.2519989,175.3159943,127.7929993,74.34729767,34.69739914,15.5323,7.076240063
72,54082,13793,13.97060013,44.4280014,100.947998,160.2480011,189.6940002,193.8580017,174.7510071,128.0679932,74.5019989,34.85369873,15.63020039,7.133580208
73,54083,13794,14.05220032,44.78960037,101.788002,160.6750031,189.5970001,194.5579987,174.6190033,128.4129944,74.60769653,35.07260132,15.60420036,7.19385004
74,54084,13795,14.02830029,44.88830185,102.1259995,160.4389954,189.8760071,196.0529938,174.822998,129.3200073,74.60649872,34.92599869,15.23950005,7.136720181
75,54085,13796,13.95090008,45.6554985,104.8820038,166.3309937,196.5220032,200.9049988,175.8710022,131.2779999,75.07920074,33.92589951,13.82740021,6.642499924
76,54101,13797,11.25619984,43.582901,108.5889969,179.2489929,209.9830017,194.0149994,159.4680023,119.7009964,65.1867981,29.21030045,10.97350025,4.814229965
77,54102,13798,11.90799999,44.0007019,107.2710037,176.6620026,204.8890076,190.2519989,157.2279968,117.7470016,63.8445015,29.71710014,11.80700016,5.34637022
78,54103,13799,12.74020004,44.59189987,105.677002,174.3130035,199.5540009,184.6309967,152.1660004,114.0429993,62.47309875,30.51280022,12.97459984,6.077420235
79,54104,13800,13.35690022,45.2120018,105.348999,174.2559967,199.9649963,181.6900024,147.9420013,111.2559967,61.75699997,31.02420044,13.72319984,6.500559807
80,54105,13801,13.51099968,45.21089935,104.8600006,173.8500061,200.4790039,179.1450043,143.9360046,109.1340027,60.48789978,30.62479973,13.79580021,6.569270134
81,54106,13802,13.54329967,45.17010117,104.8059998,173.9190063,200.4909973,175.9620056,140.5240021,107.4589996,59.72740173,30.17060089,13.80290031,6.573929787
82,54107,13803,13.47949982,44.86619949,104.5569992,173.0570068,198.4799957,171.4029999,138.0559998,106.4710007,59.54710007,29.73880005,13.69019985,6.545929909
83,54108,13804,13.34920025,44.42589951,104.0739975,171.4570007,197.2799988,167.6439972,136.9290009,106.0630035,59.94049835,29.32480049,13.45590019,6.527299881
84,54109,13805,13.22869968,44.07239914,103.7679977,170.2070007,194.9080048,164.2830048,137.302002,106.8339996,60.2655983,29.10359955,13.1260004,6.438350201
85,54110,13806,12.94610023,43.92879868,104.1589966,171.0169983,193.7339935,163.8890076,140.5859985,108.7979965,60.98720169,28.96369934,12.42010021,6.098939896
86,54114,13807,11.25839996,40.87770081,100.1989975,161.548996,182.6419983,166.3820038,145.9329987,111.1959991,62.34529877,27.67840004,10.26350021,4.796020031
87,54115,13808,11.09729958,40.12919998,98.35790253,158.9759979,179.8560028,165.1840057,141.8119965,109.3600006,61.64189911,27.95639992,10.60690022,4.889969826
88,54177,13809,6.853020191,22.31489944,58.20539856,106.3219986,151.0019989,150.0619965,132.3139954,102.1480026,63.62990189,31.01930046,10.6505003,3.822849989
89,54178,13810,7.017119884,23.08720016,62.2132988,110.9729996,162.7460022,168.3710022,146.2980042,116.9720001,68.58149719,32.61899948,10.91539955,3.867029905
90,54179,13811,0,0,0,0,0,0,0,0,0,0,0,0
91,54184,13812,6.479109764,21.50749969,58.6006012,111.2310028,162.4530029,173.7310028,154.8760071,110.3339996,63.50180054,28.57279968,9.505490303,3.540810108
92,54185,13813,6.474810123,21.37039948,57.72330093,107.6600037,159.1170044,172.4730072,152.973999,106.7350006,60.71279907,27.22400093,9.254810333,3.47694993
93,54186,13814,6.578320026,21.67499924,58.03789902,105.5270004,155.2220001,170.7680054,150.5720062,103.1470032,57.81029892,25.79540062,8.902020454,3.437520027
94,54187,13815,6.773220062,22.29439926,59.76890182,105.6269989,152.8059998,169.4660034,148.4100037,100.3059998,55.15639877,24.57579994,8.514659882,3.420730114
95,54188,13816,6.861929893,22.7159996,61.23239899,106.2249985,151.6340027,169.3619995,148.279007,100.6790009,54.9477005,24.09989929,8.229990005,3.392309904
96,54189,13817,6.942369938,22.89049911,62.36640167,106.7440033,150.996994,171.779007,151.9759979,104.3990021,56.9836998,23.96220016,8.04088974,3.361819983
97,54190,13818,7.048160076,22.96710014,62.66690063,105.9530029,149.1029968,172.6289978,154.4550018,107.4749985,59.26979828,24.0333004,8.028570175,3.37161994
98,54191,13819,7.19272995,23.17020035,62.91630173,105.5579987,148.5090027,173.9929962,157.128006,111.0370026,61.99219894,24.34090042,8.046739578,3.422240019
99,54192,13820,7.389979839,23.77190018,63.92869949,107.0100021,151.4629974,177.4420013,161.4759979,115.7850037,64.96430206,25.03089905,8.121020317,3.507139921
100,54193,13821,7.584780216,24.55800056,65.0714035,109.387001,156.0559998,181.7169952,166.3890076,120.9449997,68.11170197,25.98769951,8.226269722,3.591619968
101,54194,13822,7.670400143,25.05389977,65.34799957,111.2080002,160.076004,185.5570068,171.2409973,125.4520035,71.15100098,26.95840073,8.273960114,3.629600048
102,54195,13823,7.716939926,25.10899925,64.9138031,112.4980011,163.9340057,189.0310059,176.1589966,130.5240021,73.95220184,28.14389992,8.442379951,3.647579908
103,54196,13824,7.755859852,25.01440048,64.38269806,114.4349976,169.0240021,193.279007,181.4620056,135.3419952,76.00700378,29.26860046,8.654540062,3.688529968
104,54197,13825,7.721270084,25.03969955,64.92539978,118.2789993,175.576004,198.4600067,187.3070068,140.2720032,78.24949646,30.15699959,8.887900352,3.735270023
105,54198,13826,7.423369884,24.81229973,66.01370239,124.3509979,182.9759979,205.2189941,193.6840057,144.8200073,80.30149841,30.64459991,8.844750404,3.656879902
106,54199,13827,7.06001997,24.39599991,66.53040314,129.7859955,188.9940033,211.0509949,199.0970001,148.5659943,81.54129791,30.73530006,8.725119591,3.538269997
107,54200,13828,6.807769775,24.12220001,66.27999878,132.2960052,192.1399994,214.6750031,203.3119965,151.2940063,81.63430023,30.76140022,8.71487999,3.457000017
108,54201,13829,6.763420105,24.43429947,66.3062973,132.4320068,192.1940002,214.9179993,203.7709961,151.0670013,80.46109772,30.78809929,8.663510323,3.42189002
109,54202,13830,6.73567009,24.63599968,65.83070374,130.8739929,189.3130035,213.3659973,202.8899994,149.8320007,78.81400299,30.39229965,8.534509659,3.416790009
110,54203,13831,6.812600136,25.01399994,65.73600006,128.8659973,185.7310028,211.1049957,201.0659943,147.8049927,76.96269989,29.74629974,8.378390312,3.424580097
111,54204,13832,6.998509884,25.70619965,66.21640015,126.8389969,182.3300018,208.6060028,198.4759979,145.0379944,74.93849945,28.86730003,8.208319664,3.446150064
112,54205,13833,7.049960136,26.04459953,66.39019775,125.2060013,179.9869995,206.1139984,196.1349945,142.1369934,72.94049835,27.58869934,7.881820202,3.373539925
113,54206,13834,7.213669777,26.49250031,67.10240173,123.8560028,178.2129974,204.1080017,194.5350037,140.3769989,71.91190338,27.12380028,7.932079792,3.383450031
114,54207,13835,7.449649811,27.08009911,68.18209839,122.6910019,177.2870026,202.5269928,192.5540009,139.1889954,71.24729919,26.89249992,8.114350319,3.463449955
115,54208,13836,7.652050018,27.46109962,69.08850098,121.9430008,176.5700073,201.2949982,191.4880066,138.6380005,71.21510315,26.6909008,8.326430321,3.57543993
116,54209,13837,7.799200058,27.58390045,69.09680176,121.435997,176.147995,200.470993,191.5749969,138.3170013,70.91799927,26.59119987,8.409549713,3.710279942
117,54210,13838,7.851739883,27.63999939,69.27999878,120.9240036,175.4219971,199.9940033,191.8619995,137.4440002,70.49240112,26.32060051,8.42813015,3.778670073
118,54211,13839,8.046420097,28.54540062,71.42340088,122.8379974,177.1300049,201.6840057,193.8390045,137.326004,70.24299622,25.78790092,8.328800201,3.833050013
119,54212,13840,8.337659836,29.57749939,73.04599762,123.9940033,177.7819977,203.1950073,194.6329956,136.7579956,69.55249786,25.63540077,8.326290131,3.928070068
120,54213,13841,8.22369957,28.74010086,70.84799957,121.2009964,174.8639984,200.996994,191.3710022,134.2089996,67.81990051,25.41930008,8.393899918,3.910300016
121,54214,13842,8.190090179,28.26889992,69.21440125,119.2829971,172.052002,198.8070068,187.8820038,131.4819946,66.20549774,25.10370064,8.470600128,3.900640011
122,54215,13843,8.414730072,28.97960091,69.90450287,120.9449997,171.4069977,198.904007,186.5440063,130.5980072,65.6867981,24.88150024,8.635370255,3.982990026
123,54216,13844,8.580780029,29.60960007,70.46769714,122.5889969,170.5650024,198.5930023,185.3639984,129.8480072,64.66269684,24.63669968,8.781189919,4.074659824
124,54217,13845,8.69838047,30.06760025,70.77770233,123.7190018,170.5970001,198.6840057,184.5529938,129.9589996,64.07790375,24.60820007,8.854709625,4.116449833
