FID,Id,ORIG_FID,k26_60_1,k26_60_2,k26_60_3,k26_60_4,k26_60_5,k26_60_6,k26_60_7,k26_60_8,k26_60_9,k26_60_10,k26_60_11,k26_60_12
0,54006,13721,7.096189976,24.82629967,65.57700348,103.9020004,115.4990005,111.6169968,88.86640167,68.64640045,50.48519897,29.34009933,9.931220055,3.860090017
1,54007,13722,7.226500034,25.41640091,66.5789032,104.1230011,115.8639984,111.4960022,88.80010223,68.50039673,49.96559906,29.25379944,9.884679794,3.894459963
2,54012,13723,7.86605978,28.0970993,70.29229736,107.0410004,125.0540009,128.8410034,98.25769806,73.07019806,50.78409958,29.7595005,10.01970005,4.178979874
3,54013,13724,8.005350113,28.42140007,69.93769836,106.7559967,125.7419968,132.3809967,100.0510025,73.69599915,50.83549881,29.84390068,10.24779987,4.310669899
4,54014,13725,8.177249908,28.85779953,69.6140976,106.3820038,126.0110016,135.5579987,101.387001,74.14530182,50.86399841,29.97940063,10.53680038,4.428530216
5,54015,13726,8.360150337,29.57049942,70.50689697,106.7610016,125.8389969,136.2230072,102.1380005,74.19239807,50.61199951,30.03910065,10.75049973,4.554810047
6,54016,13727,8.440649986,29.77969933,71.02919769,107.322998,125.7770004,136.6049957,103.1470032,74.05899811,50.05749893,29.89520073,10.83790016,4.64880991
7,54017,13728,8.57820034,30.00959969,71.68800354,108.2460022,124.8539963,135.173996,102.4729996,73.47889709,49.41640091,29.64590073,10.90240002,4.754909992
8,54018,13729,8.888939857,30.61389923,72.53469849,108.2639999,121.5289993,131.253006,100.3970032,71.41280365,47.83029938,29.30879974,11.13630009,5.025010109
9,54019,13730,9.102160454,31.01300049,73.15129852,108.2360001,118.7050018,127.4240036,98.52140045,70.02189636,46.91320038,29.00769997,11.29520035,5.202139854
10,54020,13731,9.142160416,30.95849991,73.37090302,107.913002,117.038002,124.3509979,97.80400085,69.05960083,45.42039871,28.4022007,11.23359966,5.243810177
11,54021,13732,9.127790451,30.79070091,73.47940063,108.3560028,116.9940033,123.1080017,98.27700043,69.70120239,45.15829849,28.20890045,11.11190033,5.228750229
12,54022,13733,9.189869881,30.79879951,73.83869934,109.1809998,116.8669968,122.2249985,99.28170013,70.88739777,45.91659927,28.41819954,11.20590019,5.257619858
13,54023,13734,9.239640236,30.74889946,73.83660126,109.375,116.4169998,121.151001,99.7696991,71.68139648,46.59749985,28.67379951,11.34710026,5.290689945
14,54024,13735,9.26500988,30.66760063,73.64890289,109.2480011,116.211998,120.3000031,99.79039764,72.03230286,46.97829819,28.91830063,11.50370026,5.309279919
15,54025,13736,9.090709686,30.26269913,73.32900238,109.6100006,118.0110016,121.651001,101.223999,73.21949768,47.39960098,29.03739929,11.53999996,5.158800125
16,54026,13737,8.758009911,29.38669968,72.0923996,110.6279984,121.9059982,125.1620026,104.4469986,75.34169769,48.25170135,29.0965004,11.4946003,4.982419968
17,54027,13738,8.283459663,27.85160065,69.55729675,109.9550018,123.9660034,128.1119995,108.163002,78.30419922,49.22129822,29.0258007,11.25469971,4.739550114
18,54028,13739,7.939760208,26.60199928,67.19409943,109.0830002,126.1449966,132.3950043,113.1709976,81.54940033,50.61029816,28.92980003,10.82689953,4.484799862
19,54029,13740,7.91850996,26.15270042,66.10150146,109.0670013,128.276001,136.8829956,117.0199966,85.04090118,52.70479965,29.53450012,10.83950043,4.467319965
20,54030,13741,7.965509892,25.98679924,65.74759674,110.2249985,131.3500061,140.5370026,119.7979965,87.57119751,54.68849945,30.10950089,11.02600002,4.469439983
21,54031,13742,7.963319778,25.74550056,65.18109894,111.2559967,133.8130035,142.470993,120.2590027,88.29340363,55.56610107,30.07589912,11.14459991,4.41587019
22,54032,13743,7.836569786,25.34770012,63.80250168,110.7080002,135.7319946,144.6239929,120.7580032,88.50769806,55.56029892,29.45319939,11.01029968,4.289269924
23,54033,13744,7.815020084,25.22069931,62.97800064,110.564003,137.8769989,147.6419983,121.3420029,88.81169891,55.49330139,28.99909973,10.94569969,4.230420113
24,54034,13745,7.917560101,25.45639992,63.10359955,111.3889999,140.5449982,150.7180023,121.6669998,89.03469849,55.44660187,28.75189972,10.99520016,4.246880054
25,54035,13746,8.175230026,26.0503006,64.59559631,113.5429993,143.6300049,152.147995,121.1019974,88.41030121,55.10350037,28.78109932,11.24890041,4.382209778
26,54036,13747,8.381679535,26.66889954,66.16760254,115.9530029,146.9649963,154.1130066,120.9219971,87.37490082,54.23429871,28.40979958,11.36569977,4.486720085
27,54037,13748,8.521860123,27.18650055,67.32430267,117.9489975,151.1920013,158.8569946,124.314003,88.417099,54.81349945,28.6208992,11.46280003,4.553659916
28,54038,13749,8.662929535,27.77370071,68.707901,120.237999,156.7409973,167.3569946,131.2720032,91.72969818,56.66590118,29.24029922,11.53800011,4.602330208
29,54039,13750,8.834659576,28.35250092,69.97370148,122.651001,162.8309937,179.6920013,141.7830048,98.08200073,59.99710083,30.44449997,11.69540024,4.671760082
30,54040,13751,9.183639526,29.43980026,71.69689941,125.125,165.7160034,181.4940033,143.6340027,98.34290314,58.34930038,29.98180008,11.79329967,4.807940006
31,54041,13752,9.744379997,31.10519981,74.56680298,128.7180023,167.5429993,178.0130005,141.3690033,95.23400116,54.79150009,29.17950058,12.03520012,5.029409885
32,54042,13753,10.31000042,32.68590164,78.12249756,132.4810028,169.4450073,175.7709961,141.7819977,94.73069763,53.51539993,28.7723999,12.37080002,5.269989967
33,54043,13754,10.5401001,33.31980133,79.7201004,133.5769958,169.1670074,171.8040009,141.4279938,93.58560181,51.86299896,27.50869942,12.33100033,5.340330124
34,54044,13755,10.59729958,33.52280045,80.44090271,134.6580048,167.7299957,167.7619934,139.5420074,91.5786972,50.26839828,26.24300003,12.14089966,5.318970203
35,54045,13756,10.6718998,33.75630188,81.30999756,136.5410004,166.8280029,165.0460052,137.8999939,90.53980255,49.66989899,25.75399971,12.00090027,5.256599903
36,54046,13757,10.69159985,33.81200027,80.79679871,135.7389984,166.0359955,162.128006,135.9160004,89.72170258,49.60900116,25.75119972,11.96590042,5.248569965
37,54047,13758,10.5678997,33.38430023,79.42489624,133.6089935,164.4259949,159.3170013,134.0700073,88.20700073,49.44639969,25.7003994,11.82559967,5.187190056
38,54048,13759,10.59939957,33.5007019,79.27909851,133.5610046,164.1790009,157.2050018,133.3849945,87.78549957,49.80630112,26.02879906,11.92949963,5.246349812
39,54049,13760,10.7748003,34.08750153,80.38169861,136.2109985,165.6130066,156.7570038,135.1600037,89.28399658,51.15269852,26.97719955,12.20979977,5.408949852
40,54050,13761,10.87479973,34.34820175,80.31410217,135.923996,163.701004,157.2339935,137.8049927,91.38780212,52.63510132,27.97649956,12.40480042,5.545959949
41,54051,13762,10.94859982,34.55379868,80.15979767,134.576004,160.5420074,158.2160034,141.1589966,94.98719788,54.72589874,29.06369972,12.61639977,5.68088007
42,54052,13763,11.05790043,34.75059891,80.2036972,133.1889954,158.6340027,160.4790039,146.3070068,100.5950012,57.86669922,30.21409988,12.82820034,5.810569763
43,54053,13764,11.11240005,34.79230118,80.03690338,131.8470001,158.1139984,163.4440002,151.1999969,106.0299988,61.00260162,31.53639984,13.02760029,5.887849808
44,54054,13765,11.22649956,35.03030014,79.9464035,130.6840057,158.8049927,169.253006,157.3739929,112.2600021,64.60379791,33.16429901,13.33290005,5.976490021
45,54055,13766,11.27200031,35.19169998,79.77179718,129.8320007,159.4019928,174.9629974,162.9069977,117.4150009,67.97409821,34.31710052,13.58349991,6.011660099
46,54056,13767,11.32579994,35.2195015,79.35099792,129.1950073,161.0850067,181.3329926,169.3099976,122.9550018,71.59470367,35.34030151,13.80340004,6.058239937
47,54057,13768,11.49629974,35.77730179,80.66419983,131.0310059,165.0469971,186.9109955,175.0449982,127.7070007,74.8628006,36.28329849,14.06200027,6.147580147
48,54058,13769,11.66829967,36.44200134,82.645401,133.9400024,169.8820038,192.3789978,180.0050049,131.5639954,77.6242981,36.83670044,14.20759964,6.227759838
49,54059,13770,11.78190041,36.95019913,84.37480164,137.072998,174.8280029,197.6529999,183.7870026,134.3820038,79.90670013,37.12419891,14.21930027,6.291840076
50,54060,13771,11.85960007,37.38249969,85.56790161,139.5980072,178.2779999,201.1909943,185.4900055,135.1490021,81.39779663,37.25149918,14.20769978,6.331550121
51,54061,13772,11.90649986,37.83670044,86.58640289,141.904007,181.227005,204.4149933,187.279007,136.677002,82.83309937,37.15879822,14.15680027,6.339550018
52,54062,13773,11.89290047,38.00279999,87.03040314,143.3049927,183.1860046,206.9309998,188.8869934,138.2319946,83.77149963,37.00650024,14.00669956,6.316160202
53,54063,13774,11.88990021,38.02370071,87.70149994,143.8200073,183.7400055,208.4309998,190.223999,138.5950012,83.87349701,36.84640121,13.85879993,6.292890072
54,54064,13775,11.90890026,38.13460159,88.22519684,144.4570007,184.4029999,210.2700043,191.5449982,139.0269928,83.77020264,36.44990158,13.62880039,6.224080086
55,54065,13776,11.96889973,38.39670181,89.09069824,145.5469971,185.8650055,211.8329926,192.6730042,139.404007,83.74849701,36.23109818,13.48159981,6.192039967
56,54066,13777,12.03129959,38.36040115,89.2621994,146.0570068,186.6320038,212.5420074,192.9600067,139.2129974,83.14859772,35.87599945,13.39430046,6.179259777
57,54067,13778,12.21210003,38.69390106,90.23690033,147.0720062,187.5099945,212.7910004,192.5410004,138.7830048,82.80329895,35.75740051,13.49849987,6.246650219
58,54068,13779,12.40670013,39.18519974,91.39769745,147.7859955,187.9120026,212.8580017,191.9470062,138.5610046,82.55819702,35.58319855,13.63210011,6.340060234
59,54069,13780,12.57339954,39.69490051,92.53859711,148.0789948,187.9759979,212.9369965,191.4929962,138.6730042,82.13610077,35.26879883,13.69639969,6.427020073
60,54070,13781,12.66549969,40.06850052,93.37539673,148.6329956,188.3630066,213.0899963,191.2700043,138.625,81.1434021,34.50960159,13.44620037,6.343689919
61,54071,13782,12.71749973,40.24689865,93.59670258,148.9400024,188.0240021,212.1459961,190.1759949,137.5740051,79.87259674,33.91419983,13.4151001,6.346789837
62,54072,13783,12.7414999,40.32709885,93.40879822,148.8650055,187.1519928,210.1260071,188.098999,135.1730042,78.16500092,33.61220169,13.55490017,6.430799961
63,54073,13784,12.81729984,40.57189941,93.42279816,149.3029938,186.5970001,208.5160065,186.9649963,133.5059967,77.09780121,33.42639923,13.79629993,6.541100025
64,54074,13785,12.93190002,40.90570068,93.77429962,149.5189972,185.8549957,206.5209961,185.947998,132.0749969,76.21160126,33.58649826,14.07730007,6.634119987
65,54075,13786,13.05900002,41.29570007,94.55049896,150.4960022,185.8619995,204.7180023,185.3329926,131.5449982,75.73349762,33.79919815,14.3434,6.72495985
66,54076,13787,13.19610023,41.90579987,95.7059021,152.4049988,186.8549957,202.798996,184.9880066,131.0839996,75.30799866,34.12540054,14.60309982,6.830949783
67,54077,13788,13.22630024,42.19129944,96.3635025,153.6490021,187.5449982,200.8899994,183.8769989,129.6679993,74.90570068,34.13460159,14.68620014,6.885270119
68,54078,13789,13.27149963,42.45209885,96.97080231,154.4170074,187.3769989,199.1620026,183.1139984,128.4190063,74.81790161,34.02140045,14.74409962,6.953129768
69,54079,13790,13.34790039,42.73669815,97.3934021,155.0169983,186.5930023,197.5390015,182.3300018,127.4179993,74.83959961,33.90729904,14.7816,7.032760143
70,54080,13791,13.47119999,43.05799866,97.75730133,156.0930023,185.8630066,196.5570068,181.1260071,127.0559998,74.83159637,34.01589966,14.81840038,7.106339931
71,54081,13792,13.6473999,43.61759949,98.33670044,157.3800049,185.3240051,195.423996,179.9420013,126.5559998,74.93599701,34.24459839,14.92619991,7.180210114
72,54082,13793,13.79940033,44.12990189,99.14980316,158.826004,185.3470001,195.3139954,179.3950043,126.6139984,75.06269836,34.36729813,15.04749966,7.239470005
73,54083,13794,13.95730019,44.65660095,100.2870026,160.4219971,185.628006,195.2570038,179.423996,126.7389984,75.16880035,34.41849899,15.10149956,7.281149864
74,54084,13795,14.03460026,44.91109848,100.9160004,161.1089935,186.1999969,195.8639984,180.5440063,127.435997,75.0039978,34.23590088,14.82750034,7.212450027
75,54085,13796,13.94190025,45.44029999,103.8619995,167.4149933,193.8320007,199.5659943,183.1999969,128.8159943,75.0177002,33.22930145,13.37779999,6.682360172
76,54101,13797,11.13720036,42.98239899,107.2180023,177.878006,195.8990021,191.9190063,170.0169983,120.3550034,63.8044014,29.14069939,10.34420013,4.651229858
77,54102,13798,11.81400013,43.28649902,106.2080002,175.3289948,192.2660065,189.1349945,167.9499969,118.4530029,62.72859955,29.59219933,11.22229958,5.214940071
78,54103,13799,12.71010017,43.69520187,105.1360016,172.9089966,189.1419983,184.1300049,163.5619965,115.2330017,61.53609848,30.31349945,12.40859985,5.98555994
79,54104,13800,13.30099964,44.32040024,105.1389999,173.0099945,191.5240021,181.4720001,159.3959961,112.6320038,60.76589966,30.9029007,13.20069981,6.417129993
80,54105,13801,13.41129971,44.28649902,104.7190018,172.9149933,192.772995,178.7680054,155.5130005,109.4629974,59.3307991,30.43969917,13.38609982,6.507939816
81,54106,13802,13.48429966,44.39250183,104.5139999,173.4299927,193.1569977,176.3869934,151.9680023,106.3769989,58.02030182,29.84700012,13.37530041,6.550179958
82,54107,13803,13.45639992,44.29579926,103.75,173.0420074,191.3379974,173.3079987,149.4730072,104.5530014,57.36370087,29.35890007,13.20919991,6.540850163
83,54108,13804,13.37609959,44.21440125,102.927002,171.6340027,189.8500061,170.3540039,147.8119965,103.8050003,57.35660172,28.98740005,12.98840046,6.511040211
84,54109,13805,13.24810028,43.99900055,102.3479996,170.5599976,187.197998,167.9100037,147.427002,103.8779984,57.77019882,28.76420021,12.62909985,6.402259827
85,54110,13806,12.94190025,43.80649948,102.7750015,171.0800018,186.3139954,167.8390045,148.8690033,105.4329987,58.9897995,28.76460075,11.91479969,6.013869762
86,54114,13807,11.26729965,40.63750076,98.53559875,160.0659943,177.1329956,165.048996,151.7299957,108.1159973,60.86999893,28.0557003,9.934370041,4.672160149
87,54115,13808,11.12240028,39.70769882,96.93800354,156.6430054,174.1920013,161.5820007,148.8090057,106.7040024,60.13769913,28.21450043,10.18280029,4.810949802
88,54177,13809,6.755020142,22.71150017,55.60359955,107.5360031,149.4129944,154.477005,132.3249969,99.18699646,66.65170288,30.15010071,10.40950012,3.922399998
89,54178,13810,7.063300133,23.61240005,57.83440018,113.7600021,159.1499939,172.0370026,151.1970062,111.3919983,72.23149872,31.44540024,10.58679962,3.960510015
90,54179,13811,0,0,0,0,0,0,0,0,0,0,0,0
91,54184,13812,6.387509823,22.39690018,56.84619904,109.5680008,157.7960052,179.0339966,153.1320038,108.598999,66.24459839,28.16640091,9.569999695,3.617539883
92,54185,13813,6.390140057,22.50939941,56.11349869,106.685997,154.029007,177.3840027,151.4920044,105.2799988,63.33909988,26.98279953,9.37831974,3.577899933
93,54186,13814,6.505760193,22.93569946,56.09429932,104.9589996,150.25,174.5529938,148.871994,101.8560028,60.19010162,25.75810051,9.21323967,3.577169895
94,54187,13815,6.72424984,23.68610001,57.51520157,105.4160004,148.4299927,172.0010071,146.0099945,99.15570068,57.55830002,24.75970078,9.092479706,3.611540079
95,54188,13816,6.844649792,24.05080032,58.40090179,106.0630035,146.9210052,171.1199951,145.697998,99.39520264,56.91210175,24.32979965,8.84057045,3.608020067
96,54189,13817,6.884409904,24.1923008,59.16239929,106.8130035,146.2330017,172.6439972,149.1519928,103.3180008,58.25270081,24.44569969,8.591480255,3.58288002
97,54190,13818,6.953259945,24.41690063,58.95640182,106.4729996,144.7929993,172.7949982,151.9909973,106.5579987,59.7820015,24.7784996,8.483360291,3.605220079
98,54191,13819,7.101840019,24.96409988,59.40930176,106.5770035,144.8209991,173.621994,155.6549988,110.8160019,62.04330063,25.3484993,8.502129555,3.630889893
99,54192,13820,7.294789791,25.4951992,60.29470062,108.5110016,147.9219971,176.2920074,161.0370026,115.7710037,64.62149811,26.08510017,8.658029556,3.677210093
100,54193,13821,7.487400055,25.96439934,61.44329834,111.1439972,152.1450043,179.8439941,167.302002,120.9899979,67.42710114,27.07799911,8.857560158,3.737659931
101,54194,13822,7.571929932,26.09819984,61.90060043,113.0899963,155.897995,183.4859924,173.3370056,125.9219971,69.88569641,28.16209984,9.009719849,3.768810034
102,54195,13823,7.634669781,26.07550049,61.74539948,113.7030029,159.8329926,188.3939972,178.8399963,130.7120056,72.50060272,29.5034008,9.322179794,3.84664011
103,54196,13824,7.649449825,25.9095993,61.66640091,115.0279999,164.6940002,194.227005,184.7310028,135.4519958,74.77030182,30.61389923,9.574310303,3.904050112
104,54197,13825,7.582789898,25.69720078,62.33589935,118.1259995,171.2779999,201.3569946,191.4559937,140.6900024,77.17169952,31.63349915,9.747989655,3.930310011
105,54198,13826,7.23390007,25.0855999,63.71149826,123.197998,179.1499939,209.5529938,197.9259949,145.7890015,79.04949951,32.09120178,9.545200348,3.792850018
106,54199,13827,6.888060093,24.35700035,64.60240173,127.4160004,185.6660004,216.1670074,203.5319977,149.7019958,80.31020355,32.01250076,9.34016037,3.643150091
107,54200,13828,6.695119858,23.96310043,64.27600098,129.0090027,189.2389984,219.6230011,207.1360016,151.8480072,80.99690247,31.70709991,9.287269592,3.55005002
108,54201,13829,6.706389904,24.17079926,64.09020233,128.9550018,188.9429932,219.5460052,206.8470001,150.9900055,80.78399658,31.49060059,9.416859627,3.543030024
109,54202,13830,6.801400185,24.49810028,63.68799973,127.3280029,186.8179932,217.4109955,205.6569977,149.496994,79.4477005,31.08620071,9.476260185,3.547630072
110,54203,13831,6.952740192,24.95669937,63.59540176,125.3820038,184.1959991,214.5500031,203.602005,147.7579956,77.73179626,30.42329979,9.441610336,3.563699961
111,54204,13832,7.157700062,25.63969994,64.00389862,123.4300003,181.2299957,211.3119965,200.8119965,145.7259979,75.99160004,29.54470062,9.329549789,3.591909885
112,54205,13833,7.176760197,25.93899918,64.21269989,121.6600037,178.1629944,208.2890015,198.3639984,143.3150024,74.40059662,28.3348999,8.901579857,3.53689003
113,54206,13834,7.289020061,26.36120033,64.58950043,120.6660004,176.0740051,206.0590057,197.1790009,142.3450012,73.87249756,27.93989944,8.790650368,3.576819897
114,54207,13835,7.488019943,26.84079933,65.15049744,120.0100021,174.6360016,205.0059967,196.3899994,141.8939972,73.94580078,27.88489914,8.824660301,3.664459944
115,54208,13836,7.694180012,27.23250008,65.51560211,119.6900024,174.4149933,204.6459961,196.2929993,142.0480042,74.09909821,27.91650009,8.878939629,3.761559963
116,54209,13837,7.846360207,27.3946991,65.79660034,119.3730011,174.326004,203.9600067,196.0899963,142.223999,73.77410126,27.68429947,8.940059662,3.85777998
117,54210,13838,7.92343998,27.61870003,66.49299622,119.5210037,174.0659943,202.8829956,195.9320068,142.3350067,73.26719666,27.26589966,8.893750191,3.887350082
118,54211,13839,8.243049622,28.83869934,69.35050201,122.3379974,175.9140015,203.6100006,197.6609955,142.7709961,72.52670288,26.49329948,8.743610382,3.950819969
119,54212,13840,8.642829895,29.72970009,70.89900208,123.5289993,177.1560059,203.8179932,198.3809967,142.9429932,71.81900024,25.92490005,8.837820053,4.068190098
120,54213,13841,8.439539909,28.59810066,68.11399841,119.5940018,174.7879944,200.7460022,195.5839996,141.2969971,70.42269897,25.41830063,8.987669945,4.070930004
121,54214,13842,8.315010071,27.7791996,66.14279938,116.302002,172.5059967,197.6000061,192.779007,139.3549957,68.96109772,24.92110062,9.090299606,4.091179848
122,54215,13843,8.54734993,28.17359924,67.12039948,116.9110031,171.8619995,196.0789948,192.076004,138.5019989,68.35800171,24.72260094,9.188790321,4.179940224
123,54216,13844,8.728090286,28.57449913,67.94120026,117.5410004,171.4140015,195.1710052,191.4250031,137.8190002,67.6427002,24.46439934,9.369680405,4.28426981
124,54217,13845,8.868969917,28.93619919,68.71350098,118.0820007,170.798996,195.1569977,190.7640076,137.5130005,67.43160248,24.46800041,9.454950333,4.365829945
