FID,Id,ORIG_FID,k26_50_1,k26_50_2,k26_50_3,k26_50_4,k26_50_5,k26_50_6,k26_50_7,k26_50_8,k26_50_9,k26_50_10,k26_50_11,k26_50_12
0,54006,13721,7.37925005,26.12269974,64.72039795,110.6920013,117.5709991,105.560997,85.05000305,67.91649628,50.26060104,28.98830032,9.938890457,3.983299971
1,54007,13722,7.51789999,26.94260025,66.03649902,111.7979965,117.5459976,105.0699997,84.3812027,67.20680237,49.90370178,28.90449905,9.927000046,4.040299892
2,54012,13723,8.144590378,29.86680031,70.16120148,115.3590012,127.2050018,121.1380005,95.53630066,71.30249786,51.15660095,28.58699989,10.22990036,4.288320065
3,54013,13724,8.376259804,30.23880005,70.70510101,115.1809998,128.9340057,124.2460022,98.52130127,72.09059906,50.95349884,28.76910019,10.46809959,4.414869785
4,54014,13725,8.61166954,30.60269928,71.15609741,114.3949966,130.0189972,126.7080002,101.0250015,72.66739655,50.63399887,29.1121006,10.73960018,4.557179928
5,54015,13726,8.890330315,31.27289963,72.48419952,114.6380005,130.6170044,127.5770035,102.552002,73.46890259,50.3830986,29.34090042,11.00370026,4.686009884
6,54016,13727,9.030409813,31.49020004,73.15809631,115.0569992,130.7669983,127.6839981,103.6989975,74.02290344,49.89070129,29.24530029,11.08069992,4.772769928
7,54017,13728,9.174360275,31.78389931,73.94789886,116.0009995,130.2030029,126.3570023,102.8580017,73.73709869,49.4197998,28.98520088,11.10200024,4.87432003
8,54018,13729,9.554730415,32.40039825,74.70030212,115.8239975,127.1900024,123.5709991,99.52130127,72.23090363,48.17630005,28.80089951,11.3732996,5.142590046
9,54019,13730,9.850359917,32.87440109,74.97650146,114.9100037,124.2799988,120.6780014,96.6140976,70.64969635,47.30189896,28.68709946,11.58850002,5.330989838
10,54020,13731,9.933289528,32.8993988,74.78749847,114.6650009,122.4720001,118.9599991,95.15720367,69.58560181,46.04079819,28.25090027,11.60599995,5.392710209
11,54021,13732,9.898530006,32.80849838,74.93669891,115.2610016,121.7730026,119.2399979,95.48709869,69.91519928,46.0326004,27.98699951,11.57629967,5.39109993
12,54022,13733,9.916259766,32.90399933,74.93489838,115.6350021,120.7870026,120.2190018,96.38059998,70.65989685,46.61249924,28.21710014,11.68179989,5.391789913
13,54023,13734,9.918600082,32.9333992,74.71219635,115.6500015,119.8799973,120.7829971,96.76460266,71.20259857,47.14020157,28.51119995,11.78919983,5.386680126
14,54024,13735,9.924409866,32.9659996,74.76670074,115.8949966,119.7229996,121.0910034,96.83509827,71.61360168,47.54650116,28.8029995,11.90380001,5.387710094
15,54025,13736,9.833439827,32.64580154,74.88829803,116.5080032,121.5329971,122.7480011,99.04699707,73.14569855,48.14239883,29.04940033,11.96399975,5.310820103
16,54026,13737,9.482560158,31.54610062,73.81150055,116.6090012,125.4410019,126.6389999,102.9779968,75.81759644,49.22269821,29.2602005,11.85910034,5.151669979
17,54027,13738,8.825719833,29.57789993,70.73609924,113.9639969,126.5889969,129.5200043,106.7149963,79.52320099,51.00040054,29.13769913,11.46990013,4.864049911
18,54028,13739,8.295909882,28.01589966,68.4713974,112.5839996,128.7339935,134.1649933,111.6409988,83.13729858,52.94189835,28.83259964,11.06429958,4.614769936
19,54029,13740,8.200160027,27.38299942,67.20249939,111.2030029,131.3130035,138.7590027,115.8840027,86.23169708,55.05789948,29.11120033,11.19369984,4.592319965
20,54030,13741,8.19219017,27.04680061,66.80879974,111.8030014,135.1130066,142.5099945,118.8450012,88.31770325,56.86360168,29.58620071,11.42259979,4.600649834
21,54031,13742,8.074119568,26.60880089,66.17140198,112.3730011,138.4429932,144.2579956,119.3259964,88.49169922,57.52529907,29.63019943,11.55970001,4.564449787
22,54032,13743,7.890270233,26.05649948,65.05789948,111.512001,140.6950073,146.5330048,120.637001,88.52880096,57.79489899,29.15909958,11.36559963,4.469769955
23,54033,13744,7.832079887,25.8083992,64.58499908,111.1330032,143.1049957,149.3739929,122.7649994,88.60420227,57.93500137,28.87150002,11.26449966,4.427539825
24,54034,13745,7.900479794,25.93899918,64.98760223,111.6060028,146.1080017,152.2400055,125.012001,88.54190063,57.93000031,28.79299927,11.31200027,4.453199863
25,54035,13746,8.129739761,26.58390045,66.6187973,113.5759964,149.7409973,153.6190033,125.6869965,87.68609619,57.23609924,28.94219971,11.56980038,4.581950188
26,54036,13747,8.360819817,27.31150055,68.34079742,115.7570038,153.4900055,155.1459961,126.3960037,86.6875,55.90119934,28.77510071,11.66880035,4.662580013
27,54037,13748,8.519669533,27.87260056,69.71019745,117.3339996,157.298996,159.378006,129.5140076,87.60820007,56.22909927,29.07010078,11.78289986,4.745259762
28,54038,13749,8.673870087,28.57500076,71.04589844,118.8450012,161.9869995,166.404007,135.8090057,90.70639801,57.81990051,29.76499939,11.80179977,4.808579922
29,54039,13750,8.861709595,29.37739944,72.53890228,120.8349991,167.4349976,177.227005,146.3869934,96.61669922,61.01589966,30.92060089,11.96580029,4.900680065
30,54040,13751,9.244480133,30.58609962,74.72170258,123.151001,169.6300049,178.9920044,148.1320038,96.67549896,59.47499847,30.29190063,12.09430027,5.07765007
31,54041,13752,9.858449936,32.45059967,78.20909882,126.5699997,171.2299957,176.0169983,145.5769958,93.74060059,56.21879959,29.24510002,12.40750027,5.365709782
32,54042,13753,10.48490047,34.40940094,81.81919861,130.2879944,172.9799957,174.4019928,145.6620026,93.79660034,55.2826004,28.59519958,12.75720024,5.632150173
33,54043,13754,10.73250008,35.30260086,83.63330078,132.4720001,171.3190002,171.5549927,144.3840027,93.07830048,53.55979919,27.18549919,12.65559959,5.685130119
34,54044,13755,10.79209995,35.66880035,84.625,134.3359985,168.6999969,168.276001,142.0619965,91.61250305,51.61959839,25.77160072,12.40880013,5.648029804
35,54045,13756,10.82820034,35.87950134,85.70040131,137.1779938,166.8840027,166.201004,140.2610016,90.53089905,50.69639969,24.91040039,12.21759987,5.605750084
36,54046,13757,10.84360027,35.6719017,85.38749695,136.4140015,164.9680023,163.3769989,137.6499939,89.52469635,50.6935997,24.85330009,12.12119961,5.591469765
37,54047,13758,10.6960001,35.08449936,83.71649933,134.2180023,162.3240051,160.5800018,135.3150024,88.45580292,50.38510132,24.71960068,11.95800018,5.515230179
38,54048,13759,10.71490002,35.06079865,83.39779663,133.8959961,161.6569977,158.4389954,133.7480011,88.32430267,50.59109879,25.09959984,12.02770042,5.568349838
39,54049,13760,10.9090004,35.59759903,84.47660065,136.128006,163.3809967,158.2649994,134.3919983,89.75109863,52.02019882,25.9890995,12.26500034,5.693970203
40,54050,13761,11.02610016,35.83869934,84.5707016,135.5119934,161.9640045,158.1549988,135.5010071,91.58840179,53.66699982,26.88310051,12.44890022,5.796999931
41,54051,13762,11.12709999,35.96210098,84.60030365,134.2140045,159.5249939,158.2449951,137.7920074,94.29319763,55.72520065,27.98550034,12.68459988,5.880819798
42,54052,13763,11.25720024,36.02130127,84.97499847,133.2299957,158.1239929,159.2579956,142.1869965,98.47689819,58.4632988,29.29220009,12.96179962,5.940340042
43,54053,13764,11.34290028,35.90909958,85.10310364,132.1900024,157.9640045,160.798996,146.8860016,102.637001,61.39580154,30.66189957,13.2198,5.969850063
44,54054,13765,11.47140026,35.87799835,85.33540344,130.9920044,159.0010071,164.2980042,153.0090027,107.8310013,64.84290314,32.20009995,13.56879997,6.050039768
45,54055,13766,11.49190044,35.86470032,85.06960297,130.2559967,159.9530029,167.8829956,158.9219971,112.9229965,68.05570221,33.75049973,13.75049973,6.090489864
46,54056,13767,11.48200035,35.7969017,84.46600342,129.673996,161.5659943,172.4060059,166.2259979,118.7990036,71.64810181,35.09980011,13.88070011,6.135849953
47,54057,13768,11.6402998,36.33150101,85.59729767,131.3710022,165.1049957,177.5039978,172.8670044,124.0650024,75.09999847,36.31389999,14.09029961,6.201910019
48,54058,13769,11.81709957,36.9905014,87.32369995,134.0899963,169.470993,183.0399933,178.5690002,128.4920044,78.07540131,37.19879913,14.20339966,6.242380142
49,54059,13770,11.96189976,37.44739914,88.76789856,136.9429932,173.7539978,188.3600006,182.7669983,131.522995,80.49909973,37.84619904,14.22379971,6.261449814
50,54060,13771,12.07890034,37.80690002,89.68399811,139.3760071,176.1710052,192.0500031,184.9380035,132.6179962,81.61669922,38.05920029,14.21490002,6.280360222
51,54061,13772,12.16189957,38.18569946,90.540802,141.529007,178.3500061,195.5429993,187.2599945,134.3329926,82.42379761,38.10340118,14.13910007,6.303040028
52,54062,13773,12.18939972,38.43519974,91.09780121,142.8849945,179.9649963,198.5809937,189.2949982,135.8639984,82.93489838,37.97790146,14.00059986,6.302330017
53,54063,13774,12.1885004,38.72930145,91.81809998,143.6940002,181.1179962,201.3150024,190.4620056,136.7250061,83.01989746,37.63619995,13.82380009,6.310450077
54,54064,13775,12.20580006,38.95819855,92.37870026,144.3329926,181.9989929,203.4550018,190.9589996,137.371994,82.77929688,37.17670059,13.58129978,6.26816988
55,54065,13776,12.25749969,39.19179916,92.91100311,145.1199951,183.5160065,205.7920074,191.8890076,138.3090057,82.67980194,36.92179871,13.41469955,6.242869854
56,54066,13777,12.28610039,39.17760086,92.87349701,145.1000061,184.4459991,206.8450012,191.9900055,138.1660004,82.30439758,36.69049835,13.33390045,6.234059811
57,54067,13778,12.41800022,39.62340164,93.64700317,145.5330048,184.9279938,207.3110046,192.2489929,137.8399963,82.1384964,36.55450058,13.40159988,6.319849968
58,54068,13779,12.54969978,40.18220139,94.55580139,145.8690033,184.9340057,207.6199951,192.1620026,137.5630035,81.80999756,36.28540039,13.48770046,6.42441988
59,54069,13780,12.6480999,40.71559906,95.3585968,146.0079956,184.5970001,208.1130066,191.7389984,137.2899933,81.12380219,35.87559891,13.53909969,6.508810043
60,54070,13781,12.6967001,41.04389954,95.8839035,146.8280029,184.9400024,208.9850006,191.4900055,136.8170013,79.89170074,35.17589951,13.32460022,6.4271698
61,54071,13782,12.73600006,41.0970993,95.85690308,147.0939941,184.4290009,208.022995,190.3690033,135.6360016,78.48529816,34.59159851,13.31729984,6.446310043
62,54072,13783,12.79950047,41.13270187,95.60639954,146.9929962,183.2700043,205.7030029,188.7339935,133.8309937,76.75039673,34.1739006,13.46140003,6.526249886
63,54073,13784,12.8828001,41.3105011,95.6832962,147.503006,182.4450073,203.526001,187.0039978,133.3150024,75.62689972,33.92900085,13.67889977,6.622499943
64,54074,13785,13.00380039,41.49140167,95.93109894,147.7389984,181.25,201.6849976,185.3280029,132.4409943,74.83709717,33.96390152,13.8611002,6.701600075
65,54075,13786,13.1303997,41.66870117,96.39060211,148.6849976,180.977005,200.6990051,184.3619995,131.8529968,74.3451004,34.07889938,14.03100014,6.774700165
66,54076,13787,13.27330017,41.98839951,97.32540131,150.5140076,181.3240051,199.7200012,183.6490021,131.3130035,73.7173996,34.31230164,14.27970028,6.864260197
67,54077,13788,13.32219982,42.17710114,97.84369659,151.9589996,181.576004,198.2610016,182.2769928,129.9629974,72.79930115,34.2507019,14.42000008,6.901030064
68,54078,13789,13.38449955,42.3512001,98.51069641,152.9299927,181.5740051,196.4779968,180.875,128.7799988,71.94450378,34.21620178,14.55370045,6.933030128
69,54079,13790,13.46889973,42.54029846,99.1855011,153.6380005,181.4550018,194.6499939,179.6629944,127.7689972,71.19680023,34.29290009,14.69550037,6.9770298
70,54080,13791,13.59210014,42.83250046,99.70960236,154.397995,181.7480011,193.3739929,179.2429962,127.1959991,71.03410339,34.39419937,14.77740002,7.052859783
71,54081,13792,13.74409962,43.25630188,100.538002,155.3970032,181.9100037,191.7070007,178.2169952,126.7259979,70.8030014,34.68000031,14.91919994,7.149940014
72,54082,13793,13.8888998,43.72930145,101.2870026,156.4230042,182.7180023,191.3580017,177.9049988,126.8040009,70.91000366,34.88740158,15.0298996,7.227399826
73,54083,13794,14.05679989,44.21640015,102.1699982,157.878006,184.1080017,190.7700043,177.4120026,127.3410034,71.2397995,35.03590012,15.09029961,7.283329964
74,54084,13795,14.10109997,44.4090004,102.5950012,158.5619965,185.7830048,191.1959991,177.848999,128.1929932,71.28359985,34.84629822,14.87010002,7.229279995
75,54085,13796,14.05200005,45.10549927,105.3079987,164.7079926,193.9140015,194.9980011,180.0899963,129.9290009,71.64009857,33.89229965,13.50590038,6.696589947
76,54101,13797,10.58590031,43.18759918,107.7929993,176.2980042,199.0500031,189.6959991,166.0930023,116.3529968,63.66090012,28.8906002,10.54199982,4.55325985
77,54102,13798,11.40680027,43.52890015,106.6520004,174.8130035,194.6529999,186.2149963,164.0299988,114.072998,62.14810181,29.27840042,11.41740036,5.130099773
78,54103,13799,12.47280025,43.95780182,105.3610001,173.4640045,190.6880035,181.1869965,159.8699951,110.5719986,60.59370041,29.96249962,12.64850044,5.912809849
79,54104,13800,13.12530041,44.39110184,104.8590012,173.7910004,192.5980072,178.7810059,155.8470001,107.4380035,59.50490189,30.46450043,13.47329998,6.342979908
80,54105,13801,13.25049973,44.30680084,104.3560028,173.4420013,194.3549957,176.7910004,151.5590057,104.1520004,57.9435997,30.11680031,13.54090023,6.431139946
81,54106,13802,13.27700043,44.27719879,104.3330002,173.4869995,195.3760071,174.3410034,147.9609985,101.5080032,56.73929977,29.73789978,13.46549988,6.460450172
82,54107,13803,13.22309971,44.06900024,103.788002,172.4069977,194.7350006,170.4819946,145.473999,99.88230133,56.00730133,29.48889923,13.24590015,6.43392992
83,54108,13804,13.16100025,43.88809967,102.7639999,170.5039978,193.4459991,167.0529938,143.8690033,99.16120148,56.12540054,29.47769928,12.99180031,6.378789902
84,54109,13805,13.02900028,43.63270187,102.0449982,168.897995,191.6380005,164.3200073,143.5919952,99.66609955,56.58769989,29.43650055,12.64729977,6.244830132
85,54110,13806,12.67910004,43.46110153,102.1080017,168.9349976,190.8809967,164.5269928,145.0970001,101.3499985,58.12070084,29.39369965,11.86760044,5.844590187
86,54114,13807,10.84259987,39.93840027,96.72540283,158.9620056,178.048996,161.1049957,147.223999,104.7350006,59.87799835,28.27190018,9.959010124,4.592279911
87,54115,13808,10.66100025,38.89220047,94.68470001,155.5839996,174.5890045,158.4389954,144.522995,103.2320023,59.24829865,28.1154995,10.17650032,4.682549953
88,54177,13809,6.673190117,21.84770012,56.7030983,106.5739975,145.3950043,152.2089996,132.6289978,101.3499985,63.12490082,30.4871006,10.35599995,3.739969969
89,54178,13810,6.74819994,23.32979965,59.43769836,110.4250031,157.6640015,166.1499939,147.7129974,114.2649994,67.74510193,32.37530136,10.77250004,3.911520004
90,54179,13811,0,0,0,0,0,0,0,0,0,0,0,0
91,54184,13812,6.516339779,21.93799973,57.20970154,108.6490021,157.7709961,175.1360016,154.6519928,109.3379974,63.35430145,27.89529991,9.667980194,3.578000069
92,54185,13813,6.552929878,22.28039932,56.73519897,105.1080017,154.0339966,173.3359985,153.2689972,106.1709976,60.4754982,26.74729919,9.508580208,3.551620007
93,54186,13814,6.669579983,22.91410065,57.0135994,103.2939987,150.345993,170.5460052,150.8630066,102.8519974,57.50569916,25.52770042,9.29817009,3.579509974
94,54187,13815,6.903510094,23.76429939,58.45100021,104.3939972,148.5740051,168.5659943,148.6629944,100.3929977,55.10179901,24.55870056,9.079790115,3.627929926
95,54188,13816,7.005020142,24.3355999,59.79330063,105.2279968,147.8760071,167.4320068,148.8730011,100.8960037,55.07360077,24.17550087,8.932609558,3.630130053
96,54189,13817,7.002180099,24.66160011,60.93429947,105.9000015,148.2030029,168.5140076,153.1840057,104.1279984,56.71369934,24.32839966,8.777649879,3.613960028
97,54190,13818,7.063529968,24.95199966,61.32479858,105.3769989,147.5420074,169.2089996,155.2599945,107.2369995,58.38430023,24.60460091,8.732390404,3.646199942
98,54191,13819,7.180729866,25.34370041,62.0780983,105.7900009,147.7769928,170.4320068,157.8959961,110.7649994,60.42110062,25.26210022,8.764229774,3.720000029
99,54192,13820,7.363200188,25.92130089,63.09500122,107.7699966,150.7019958,173.6820068,162.4640045,115.0950012,63.15399933,25.94420052,8.855560303,3.801680088
100,54193,13821,7.559289932,26.60140038,64.2201004,110.4660034,155.0240021,177.8560028,167.8130035,119.9520035,66.4375,26.7385006,8.972149849,3.876600027
101,54194,13822,7.650159836,26.90870094,64.61840057,112.7180023,159.2079926,181.7310028,173.1360016,124.5680008,69.50140381,27.55209923,9.045649529,3.902859926
102,54195,13823,7.725230217,26.8654995,64.33809662,114.1470032,163.701004,186.7680054,177.8090057,128.5090027,72.68699646,28.67959976,9.282819748,3.944279909
103,54196,13824,7.748960018,26.68510056,64.11090088,116.0699997,169.3419952,193.5899963,182.4570007,132.2859955,75.48609924,29.67210007,9.592080116,3.978280067
104,54197,13825,7.699639797,26.58110046,64.86019897,119.572998,176.1959991,201.4490051,188.7890015,136.8240051,78.04309845,30.61450005,9.873970032,3.983809948
105,54198,13826,7.423630238,25.94709969,66.00240326,124.4189987,183.8359985,209.9080048,195.9689941,141.8130035,79.7059021,30.8817997,9.744930267,3.816169977
106,54199,13827,7.088809967,25.2493,66.7542038,128.3079987,190.0950012,216.4490051,201.9519958,146.0619965,80.73130035,30.70199966,9.491539955,3.652499914
107,54200,13828,6.845839977,24.75690079,66.80370331,129.552002,193.2689972,220.3110046,204.9909973,148.7599945,81.18070221,30.24699974,9.30218029,3.568340063
108,54201,13829,6.803080082,24.76860046,66.86070251,129.3860016,192.5769958,220.2949982,203.9029999,148.973999,80.25209808,29.79439926,9.22465992,3.552930117
109,54202,13830,6.831530094,25.02510071,66.46589661,127.8850021,190.3059998,218.9100037,202.1439972,148.1349945,78.88140106,29.20429993,9.111689568,3.528939962
110,54203,13831,6.930930138,25.37269974,66.24389648,126.2679977,187.2350006,216.3710022,199.7940063,146.201004,77.167099,28.46920013,8.96257019,3.54204011
111,54204,13832,7.116680145,25.82710075,66.28639984,124.9380035,183.5690002,212.9340057,196.9179993,143.4049988,75.18599701,27.60339928,8.766530037,3.595530033
112,54205,13833,7.165709972,25.92499924,65.99780273,124.0739975,180.125,210.0820007,194.0870056,140.776001,73.04679871,26.39319992,8.344880104,3.515300035
113,54206,13834,7.303639889,26.3227005,66.19509888,123.2959976,177.9490051,208.5119934,192.8379974,139.6649933,72.11319733,25.91300011,8.256500244,3.516180038
114,54207,13835,7.507239819,26.9279995,66.83509827,122.7200012,176.9909973,207.5200043,192.3309937,139.4700012,71.21869659,25.52319908,8.287369728,3.559000015
115,54208,13836,7.718490124,27.36770058,67.24479675,122.4759979,176.8159943,207.2980042,192.3760071,139.871994,71.00160217,25.43980026,8.372850418,3.611550093
116,54209,13837,7.865399837,27.66469955,67.39099884,122.2679977,176.5930023,207.2570038,192.7250061,139.9290009,70.77130127,25.1807003,8.474329948,3.712009907
117,54210,13838,7.940239906,27.92639923,67.93180084,122.2470016,176.2940063,207.1869965,192.6900024,139.6660004,70.36049652,24.89030075,8.459360123,3.768330097
118,54211,13839,8.186010361,28.93840027,70.75579834,124.6259995,178.0700073,208.6799927,194.3470001,140.147995,69.98609924,24.41449928,8.371359825,3.832649946
119,54212,13840,8.516460419,29.91270065,72.16619873,126.1750031,179.1620026,209.0269928,195.2039948,140.602005,69.49279785,24.16990089,8.323710442,3.942859888
120,54213,13841,8.380330086,29.00889969,69.47389984,123.1309967,176.3659973,205.9259949,192.4940033,139.1029968,68.21700287,24.03190041,8.318160057,3.978199959
121,54214,13842,8.308130264,28.37490082,67.53980255,120.5490036,173.4649963,202.6519928,189.6719971,137.2149963,66.85700226,23.8470993,8.306710243,4.020450115
122,54215,13843,8.496109962,28.94379997,68.4940033,120.802002,172.1430054,201.0410004,188.6439972,136.0370026,66.48509979,23.64179993,8.387490273,4.103990078
123,54216,13844,8.661849976,29.42810059,69.29460144,120.9909973,171.0119934,199.977005,187.8309937,134.6470032,65.9890976,23.45479965,8.466400146,4.200650215
124,54217,13845,8.801179886,29.76499939,69.65129852,121.2570038,170.3059998,199.7319946,187.621994,134.1869965,65.94139862,23.41460037,8.539480209,4.261760235
